time(sec),acc(in/s/s),vel(in/s),pos(in),lateral_acc_1,lateral_acc_2,Load_1(lbs),Load_2(lbs),Load_3(lbs),Pressure(psi),Temperature(F)
0,3.8,48.97,155.48,0.07,0.16,2630.8,2722.8,2740.1,1785.8,0
0.02,-1.6,48.93,156.46,-0.218,-0.185,2617.8,2695.3,2696.9,1779.9,0
0.04,-5.99,48.81,157.43,0.14,-0.07,2544.6,2593.2,2621.7,1785.8,0
0.06,-9.79,48.62,158.41,-0.021,0.095,2508.1,2599.8,2628.5,1788.7,0
0.08,-12.98,48.36,159.37,-0.128,-0.155,2530.3,2564.4,2621.7,1785.8,0
0.1,-15.98,48.04,160.33,-0.111,0.02,2472.8,2607.6,2606.9,1785.8,0
0.12,-18.18,47.68,161.29,0.016,-0.01,2551.1,2643,2643.3,1788.7,0
0.14,-19.97,47.28,162.23,0.016,-0.085,2565.5,2628.6,2672.9,1788.7,0
0.16,-21.37,46.85,163.17,-0.169,-0.055,2551.1,2628.6,2628.5,1788.7,0
0.18,-22.17,46.41,164.1,-0.045,-0.095,2544.6,2607.6,2666.1,1785.8,0
0.2,-21.77,45.97,165.02,0.021,-0.005,2465,2585.4,2584,1788.7,0
0.22,-20.77,45.55,165.93,0.066,0.005,2472.8,2550,2606.9,1785.8,0
0.24,-20.57,45.14,166.83,0.23,-0.08,2480.7,2543.5,2540.9,1782.8,0
0.26,-21.57,44.71,167.73,-0.033,-0.01,2509.4,2572.3,2629.7,1782.8,0
0.28,-24.97,44.21,168.61,0.189,0.01,2566.8,2615.5,2659.3,1782.8,0
0.3,-29.36,43.62,169.48,0.004,-0.075,2508.1,2614.2,2658.1,1788.7,0
0.32,-35.15,42.92,170.34,0.177,-0.015,2495,2557.9,2629.7,1782.8,0
0.34,-40.75,42.11,171.18,-0.07,-0.07,2408.9,2500.3,2526.1,1782.8,0
0.36,-45.74,41.19,172.01,-0.029,-0.045,2337.1,2399.5,2422.4,1782.8,0
0.38,-50.13,40.19,172.81,-0.111,0.02,2273.1,2335.3,2415.6,1779.9,0
0.4,-53.73,39.11,173.59,-0.379,-0.02,2287.5,2349.7,2386,1779.9,0
0.42,-57.13,37.97,174.35,-0.103,-0.095,2309.7,2372,2394.1,1776.9,0
0.44,-58.92,36.79,175.09,-0.107,0.31,2288.8,2394.2,2416.9,1774,0
0.46,-60.12,35.59,175.8,0.103,-0.205,2215.7,2320.9,2371.2,1779.9,0
0.48,-60.52,34.38,176.49,0.177,-0.555,2274.5,2322.2,2357.7,1774,0
0.5,-60.92,33.16,177.15,0.173,0.205,2217,2293.4,2342.9,1774,0
0.52,-61.32,31.94,177.79,-0.045,0.19,2282.3,2358.9,2365.7,1771.1,0
0.54,-61.72,30.7,178.4,-0.609,0.165,2260.1,2351,2372.5,1774,0
0.56,-62.12,29.46,178.99,-0.123,-0.005,2304.5,2366.7,2373.7,1768.1,0
0.58,-61.32,28.23,179.56,-0.004,-0.075,2304.5,2323.5,2373.7,1768.1,0
0.6,-59.92,27.03,180.1,0.111,-0.085,2240.6,2259.4,2322.5,1765.2,0
0.62,-57.73,25.88,180.62,0.243,-0.01,2226.2,2273.8,2307.7,1765.2,0
0.64,-55.53,24.77,181.11,0.243,0.365,2262.8,2310.4,2345.3,1762.2,0
0.66,-52.53,23.72,181.59,0.16,0.12,2256.3,2390.3,2368.2,1759.3,0
0.68,-49.74,22.72,182.04,-0.247,-0.41,2299.3,2375.9,2427.4,1759.3,0
0.7,-46.74,21.79,182.48,0.337,0.07,2283.6,2374.6,2396.5,1765.2,0
0.72,-43.94,20.91,182.89,-0.008,0.295,2335.9,2412.6,2420.6,1756.3,0
0.74,-40.75,20.1,183.3,-0.156,0.19,2364.6,2383.8,2450.2,1756.3,0
0.76,-37.35,19.35,183.68,0.28,-0.375,2285,2347.1,2412.6,1759.3,0
0.78,-33.96,18.67,184.06,0.029,0.05,2307.2,2398.2,2420.6,1756.3,0
0.8,-31.96,18.03,184.42,0.313,-0.055,2321.5,2398.2,2435.4,1756.3,0
0.82,-31.36,17.4,184.77,-0.008,0.295,2343.8,2406,2473,1753.4,0
0.84,-32.76,16.75,185.1,0.086,0.585,2379,2427,2553.8,1756.3,0
0.86,-35.15,16.04,185.42,-0.128,0.515,2366,2428.3,2510.7,1750.5,0
0.88,-38.35,15.28,185.73,-0.412,-0.065,2379,2412.6,2465,1756.3,0
0.9,-40.35,14.47,186.02,-0.239,0.055,2308.5,2385.1,2407,1750.5,0
0.92,-41.35,13.64,186.29,0.23,0.275,2208,2269.9,2377.4,1750.5,0
0.94,-40.95,12.82,186.55,-0.074,-0.06,2201.5,2277.7,2311.4,1747.5,0
0.96,-39.55,12.03,186.79,0.103,-0.145,2201.5,2220.1,2311.4,1747.5,0
0.98,-37.35,11.29,187.01,0.193,-0.02,2228.9,2319.6,2354.6,1753.4,0
1,-34.56,10.6,187.22,-0.004,-0.115,2273.3,2378.5,2429.9,1747.5,0
1.02,-32.16,9.95,187.42,-0.066,0,2309.9,2444,2423.1,1744.6,0
1.04,-29.36,9.37,187.61,0.012,-0.115,2338.6,2415.2,2437.9,1744.6,0
1.06,-26.77,8.83,187.79,0.058,-0.115,2294.2,2385.1,2407,1750.5,0
1.08,-25.17,8.33,187.95,-0.123,-0.1,2338.6,2400.8,2437.9,1744.6,0
1.1,-24.17,7.84,188.11,-0.07,-0.195,2345.1,2421.7,2444.7,1747.5,0
1.12,-23.57,7.37,188.26,0.086,0.055,2367.3,2400.8,2467.5,1744.6,0
1.14,-24.17,6.89,188.4,0.086,-0.105,2418.2,2466.2,2475.5,1741.6,0
1.16,-24.17,6.41,188.52,-0.103,-0.085,2352.9,2386.4,2452.7,1744.6,0
1.18,-24.57,5.91,188.64,0.053,0.035,2360.8,2351,2431.1,1741.6,0
1.2,-24.97,5.41,188.75,-0.037,0.04,2332.1,2365.4,2416.3,1741.6,0
1.22,-26.57,4.88,188.85,-0.082,-0.05,2325.6,2402.1,2394.7,1738.7,0
1.24,-29.76,4.29,188.93,-0.086,-0.175,2368.6,2416.5,2439.1,1738.7,0
1.26,-32.96,3.63,189.01,0.053,0.12,2346.4,2365.4,2431.1,1741.6,0
1.28,-36.75,2.89,189.06,-0.173,-0.09,2282.5,2358.9,2424.3,1738.7,0
1.3,-40.55,2.08,189.11,-0.029,-0.065,2252.4,2314.4,2378.7,1744.6,0
1.32,-44.34,1.2,189.13,-0.033,-0.035,2231.5,2264.6,2327.5,1741.6,0
1.34,-47.94,0.24,189.13,-0.008,-0.095,2196.3,2243.7,2291.1,1738.7,0
1.36,-50.93,-0.78,189.12,-0.045,-0.055,2196.3,2214.9,2276.3,1738.7,0
1.38,-52.73,-1.84,189.08,-0.012,-0.025,2188.5,2221.4,2283.1,1741.6,0
1.4,-52.73,-2.89,189.02,0.078,-0.005,2181.9,2214.9,2261.5,1738.7,0
1.42,-50.53,-3.9,188.95,0.021,-0.03,2137.5,2170.4,2215.8,1744.6,0
1.44,-46.54,-4.83,188.85,-0.004,-0.075,2132.4,2193.9,2254.7,1735.8,0
1.46,-40.75,-5.65,188.74,-0.008,-0.08,2132.4,2208.3,2225.1,1735.8,0
1.48,-34.56,-6.34,188.61,-0.074,-0.065,2204.2,2251.5,2299.1,1735.8,0
1.5,-28.96,-6.92,188.47,0.016,-0.05,2268.1,2330.1,2379.9,1738.7,0
1.52,-25.57,-7.43,188.32,0.037,-0.06,2274.6,2351,2386.7,1741.6,0
1.54,-25.17,-7.93,188.16,-0.004,-0.035,2341.2,2389,2440.4,1732.8,0
1.56,-28.56,-8.5,187.99,-0.045,-0.035,2333.4,2395.5,2476.8,1735.8,0
1.58,-34.56,-9.19,187.81,0.041,-0.035,2319,2366.7,2432.3,1735.8,0
1.6,-42.15,-10.04,187.61,-0.062,-0.085,2261.6,2337.9,2373.1,1735.8,0
1.62,-51.13,-11.06,187.39,-0.062,-0.045,2189.8,2193.9,2284.3,1735.8,0
1.64,-59.52,-12.25,187.14,-0.062,-0.02,2009.6,2056.5,2128.2,1738.7,0
1.66,-67.91,-13.61,186.87,-0.037,-0.085,1982.2,2029,2085.1,1732.8,0
1.68,-76.3,-15.13,186.57,-0.004,-0.05,1960,2021.1,2062.2,1735.8,0
1.7,-85.49,-16.84,186.23,0.012,-0.01,1982.2,1985.8,2055.4,1732.8,0
1.72,-94.68,-18.74,185.86,-0.033,-0.06,1917,1963.5,2003,1735.8,0
1.74,-103.07,-20.8,185.44,-0.008,-0.035,1851.7,1912.5,1980.2,1738.7,0
1.76,-110.46,-23.01,184.98,0.016,-0.035,1802.1,1848.3,1929,1735.8,0
1.78,-115.45,-25.32,184.47,0.07,-0.11,1702.9,1763.2,1767.4,1729.9,0
1.8,-118.25,-27.68,183.92,-0.049,-0.04,1616.7,1662.4,1678.5,1729.9,0
1.82,-118.25,-30.05,183.32,-0.049,-0.075,1537.1,1596.9,1655.7,1732.8,0
1.84,-115.25,-32.35,182.67,-0.058,0.01,1595.9,1627.1,1671.8,1726.9,0
1.86,-109.66,-34.55,181.98,-0.033,-0.09,1589.3,1606.1,1650.2,1724,0
1.88,-101.27,-36.57,181.25,0.058,-0.06,1575,1634.9,1650.2,1724,0
1.9,-90.08,-38.37,180.48,-0.045,-0.02,1547.6,1593,1621.8,1718.1,0
1.92,-76.3,-39.9,179.68,-0.037,-0.025,1576.3,1593,1651.4,1718.1,0
1.94,-60.32,-41.11,178.86,0.021,-0.055,1584.2,1629.7,1644.6,1715.2,0
1.96,-41.35,-41.93,178.02,0.029,-0.02,1612.9,1629.7,1674.2,1715.2,0
1.98,-19.18,-42.32,177.18,0.062,-0.03,1592,1608.7,1667.5,1712.2,0
2,5.19,-42.21,176.33,0.144,-0.01,1563.3,1565.5,1637.8,1712.2,0
2.02,26.97,-41.67,175.5,-0.053,-0.05,1448.4,1464.7,1534.2,1712.2,0
2.04,42.94,-40.81,174.68,-0.012,0.035,1391,1378.3,1445.4,1712.2,0
2.06,50.53,-39.8,173.89,0.041,0.005,1260.4,1276.2,1340.5,1718.1,0
2.08,49.74,-38.81,173.11,-0.012,0.035,1132.5,1147.9,1238.1,1712.2,0
2.1,41.75,-37.97,172.35,-0.012,0.04,938,909.6,948.8,1715.2,0
2.12,27.76,-37.42,171.6,0.086,0.035,729.1,743.4,748.3,1718.1,0
2.14,9.99,-37.22,170.86,-0.008,-0.175,585.5,527.4,600.3,1718.1,0
2.16,-8.59,-37.39,170.11,-0.033,-0.075,441.9,368.9,437.4,1718.1,0
2.18,-26.57,-37.92,169.35,0.091,0.02,290.4,260.3,296.2,1721,0
2.2,-41.75,-38.76,168.58,0.012,-0.04,200.2,141.2,188.8,1738.7,0
2.22,-53.93,-39.83,167.78,0.181,-0.025,116.6,71.8,73.4,1759.3,0
2.24,-63.52,-41.11,166.96,-0.074,0.025,106.1,46.9,77.7,1774,0
2.26,-69.91,-42.5,166.11,0.049,0.05,120.4,75.7,107.3,1774,0
2.28,-74.5,-43.99,165.23,-0.198,-0.15,119.1,74.4,91.3,1779.9,0
2.3,-76.9,-45.53,164.32,0.206,0,146.5,73.1,90.1,1785.8,0
2.32,-76.5,-47.06,163.38,-0.115,-0.075,116.4,71.8,118.4,1791.7,0
2.34,-73.9,-48.54,162.41,0.058,-0.07,145.1,100.6,118.4,1791.7,0
2.36,-69.31,-49.93,161.41,-0.078,-0.26,150.3,105.8,94.4,1800.5,0
2.38,-63.92,-51.2,160.38,-0.292,-0.26,158.2,99.3,102.4,1797.5,0
2.4,-59.52,-52.39,159.34,-0.021,-0.075,265.2,206.7,198,1800.5,0
2.42,-56.13,-53.52,158.27,-0.091,-0.11,305.6,232.8,225.1,1812.2,0
2.44,-54.13,-54.6,157.17,0.152,0.03,356.5,312.7,322,1809.3,0
2.46,-53.93,-55.68,156.06,-0.185,-0.245,297.8,282.6,320.7,1815.2,0
2.48,-55.33,-56.78,154.92,-0.16,-0.005,291.3,247.2,284.3,1812.2,0
2.5,-58.32,-57.95,153.77,-0.045,-0.04,270.4,197.5,277.6,1809.3,0
2.52,-62.92,-59.21,152.58,0.045,0.035,240.3,167.4,202.3,1815.2,0
2.54,-68.11,-60.57,151.37,-0.086,-0.1,262.5,175.2,225.1,1812.2,0
2.56,-73.5,-62.04,150.13,-0.115,0.095,219.4,160.8,210.3,1812.2,0
2.58,-79.3,-63.63,148.86,0.136,-0.385,205.1,60,151.1,1812.2,0
2.6,-85.69,-65.34,147.55,-0.099,-0.19,68,-34.2,39.4,1815.2,0
2.62,-93.28,-67.21,146.21,-0.206,-0.175,47.1,-40.8,3.1,1812.2,0
2.64,-101.67,-69.24,144.82,-0.181,0.235,90.2,31.2,62.3,1812.2,0
2.66,-109.46,-71.43,143.39,0.23,-0.265,75.8,-40.8,17.9,1812.2,0
2.68,-114.45,-73.72,141.92,0.045,-0.1,-3.8,-135,-79,1815.2,0
2.7,-115.65,-76.03,140.4,-0.321,0.07,-126.5,-229.3,-175.8,1818.1,0
2.72,-112.85,-78.29,138.83,-0.107,-0.365,-220.5,-251.5,-272.7,1821.1,0
2.74,-106.86,-80.43,137.22,0.045,0.05,-249.3,-294.7,-243.1,1821.1,0
2.76,-100.07,-82.43,135.57,0.329,-0.1,-134.4,-222.7,-228.3,1821.1,0
2.78,-93.48,-84.3,133.89,0.012,0.05,66.7,-78.7,-95,1821.1,0
2.8,-86.89,-86.04,132.17,-0.239,0.235,122.8,49.6,22.2,1827,0
2.82,-77.7,-87.59,130.42,0.51,0.01,100.6,70.5,14.1,1829.9,0
2.84,-65.71,-88.9,128.64,0.461,-0.19,41.8,-46,-16.7,1835.8,0
2.86,-49.74,-89.9,126.84,0.091,0.18,-80.9,-125.9,-98.8,1838.7,0
2.88,-31.36,-90.53,125.03,-0.514,0.115,-45.7,-119.3,-77.2,1841.7,0
2.9,-11.98,-90.76,123.21,-0.329,-0.305,118.8,103.2,107.3,1844.6,0
2.92,6.99,-90.63,121.4,0.202,0.07,319.8,276.1,329.3,1844.6,0
2.94,23.77,-90.15,119.6,0.753,-0.065,535.2,463.3,492.2,1844.6,0
2.96,37.75,-89.39,117.81,0.049,0.06,627.9,570.6,602.6,1847.5,0
2.98,48.54,-88.42,116.04,-0.049,-0.205,634.4,649.2,683.4,1850.5,0
3,54.93,-87.33,114.3,-0.263,-0.025,610.9,654.4,689,1859.3,0
3.02,58.52,-86.15,112.57,-0.3,-0.05,669.6,655.7,719.8,1853.4,0
3.04,58.72,-84.98,110.87,0.148,0.225,711.4,640,718.6,1859.3,0
3.06,57.73,-83.83,109.2,-0.222,0.155,661.8,604.7,697,1856.4,0
3.08,56.53,-82.7,107.54,-0.42,-0.335,596.5,553.6,644.5,1859.3,0
3.1,54.73,-81.6,105.91,-0.198,0.005,583.5,540.5,616.2,1853.4,0
3.12,55.33,-80.49,104.3,0.074,-0.68,591.3,505.2,594.6,1850.5,0
3.14,55.73,-79.38,102.71,-0.029,0.16,621.4,549.7,625.4,1844.6,0
3.16,55.73,-78.27,101.15,0.453,0.085,592.6,564.1,655,1844.6,0
3.18,55.73,-77.15,99.6,-0.008,-0.29,657.9,615.1,663.1,1841.7,0
3.2,55.33,-76.04,98.08,-0.325,-0.085,714,657,676.6,1847.5,0
3.22,55.73,-74.93,96.59,0,-0.03,708.9,695,730.3,1838.7,0
3.24,56.73,-73.79,95.11,0.144,-0.255,657.9,643.9,692.7,1841.7,0
3.26,59.12,-72.61,93.66,0.119,-0.23,637.1,608.6,656.3,1838.7,0
3.28,62.92,-71.35,92.23,-0.23,0,644.9,674,664.3,1835.8,0
3.3,68.11,-69.99,90.83,0.3,0.085,695.8,667.5,657.5,1832.8,0
3.32,72.71,-68.54,89.46,0.366,-0.095,724.6,710.7,701.9,1832.8,0
3.34,76.5,-67.01,88.12,0.078,-0.035,804.2,790.5,754.4,1829.9,0
3.36,78.1,-65.45,86.81,0.169,-0.03,847.3,819.3,858,1829.9,0
3.38,79.1,-63.86,85.53,0.173,0.14,926.9,899.2,895.6,1827,0
3.4,79.7,-62.27,84.29,0.037,0.065,912.6,870.4,925.3,1827,0
3.42,80.1,-60.67,83.07,0.025,-0.02,856.5,814.1,837.7,1821.1,0
3.44,80.7,-59.05,81.89,0.144,0.405,769,740.8,747.6,1827,0
3.46,79.9,-57.46,80.74,-0.037,-0.19,813.4,670.1,748.8,1821.1,0
3.48,76.5,-55.93,79.63,0.078,-0.04,856.5,770.9,808.1,1821.1,0
3.5,70.71,-54.51,78.54,0.086,-0.19,835.6,865.2,919.7,1818.1,0
3.52,61.72,-53.28,77.47,-0.16,-0.12,900.9,815.4,883.3,1815.2,0
3.54,51.33,-52.25,76.42,-0.082,0.1,814.7,801,853.7,1815.2,0
3.56,40.35,-51.44,75.4,-0.029,-0.095,715.5,687.1,766.1,1809.3,0
3.58,29.36,-50.86,74.38,-0.123,-0.065,600.7,557.5,603.3,1809.3,0
3.6,19.18,-50.47,73.37,-0.226,-0.14,528.9,471.1,514.4,1809.3,0
3.62,10.19,-50.27,72.36,-0.008,-0.015,458.4,443.6,441.7,1803.4,0
3.64,1.6,-50.24,71.36,-0.008,-0.295,472.8,443.6,456.5,1803.4,0
3.66,-5.59,-50.35,70.35,-0.292,0.085,401,429.2,441.7,1803.4,0
3.68,-9.79,-50.55,69.34,-0.012,-0.075,453.2,395.2,450.9,1794.6,0
3.7,-14.38,-50.83,68.32,-0.066,-1.115,387.9,372.9,398.5,1797.5,0
3.72,-16.38,-51.16,67.3,0.025,-0.325,373.6,315.3,354.1,1797.5,0
3.74,-17.98,-51.52,66.27,0.049,-0.235,381.4,337.6,332.5,1794.6,0
3.76,-17.98,-51.88,65.23,0.218,-0.48,432.3,417.4,355.3,1791.7,0
3.78,-17.38,-52.23,64.19,0.074,-0.155,424.5,395.2,436.1,1794.6,0
3.8,-14.58,-52.52,63.14,0.078,0.085,440.2,382.1,422.5,1788.7,0
3.82,-10.39,-52.73,62.08,-0.457,0.085,387.9,358.5,368.9,1797.5,0
3.84,-4.39,-52.81,61.03,-0.193,-0.03,411.5,396.5,363.3,1788.7,0
3.86,2,-52.77,59.97,0.012,-0.065,461.1,403,444.1,1791.7,0
3.88,7.99,-52.61,58.92,-0.156,-0.155,518.5,460.6,518.2,1791.7,0
3.9,13.78,-52.34,57.87,-0.193,0.495,547.2,518.2,607,1791.7,0
3.92,17.78,-51.98,56.83,0.099,0.005,604.7,619,621.8,1791.7,0
3.94,19.77,-51.59,55.8,0.111,-0.055,625.5,625.6,687.8,1794.6,0
3.96,21.57,-51.16,54.78,0.012,-0.03,684.3,612.5,644.6,1788.7,0
3.98,21.37,-50.73,53.76,-0.111,0.075,670,598.1,674.2,1788.7,0
4,19.57,-50.34,52.76,-0.07,0.09,596.8,553.6,687.8,1794.6,0
4.02,15.18,-50.03,51.76,0.366,-0.08,598.2,583.7,629.8,1788.7,0
4.04,8.59,-49.86,50.76,0.428,-0.075,655.6,569.3,703.8,1788.7,0
4.06,1,-49.84,49.76,-0.28,0.165,626.9,612.5,659.4,1788.7,0
4.08,-6.79,-49.98,48.76,-0.148,-0.225,527.7,513,601.4,1782.8,0
4.1,-12.18,-50.22,47.76,-0.218,-0.05,484.6,383.4,468.2,1782.8,0
4.12,-12.78,-50.48,46.75,-0.086,-0.23,406.3,362.4,387.4,1779.9,0
4.14,-8.99,-50.66,45.74,0.107,0.035,355.4,268.2,423.8,1782.8,0
4.16,-0.4,-50.66,44.72,-0.132,-0.285,384.1,282.6,305.4,1782.8,0
4.18,11.19,-50.44,43.71,-0.424,0.305,399.8,312.7,395.4,1776.9,0
4.2,23.17,-49.98,42.71,-0.078,-0.035,578.6,463.2,505.8,1779.9,0
4.22,33.56,-49.31,41.73,0.099,0.04,787.5,672.7,706.3,1776.9,0
4.24,42.35,-48.46,40.76,-0.214,0.165,851.5,808.9,846.3,1779.9,0
4.26,49.74,-47.47,39.81,-0.202,-0.045,908.9,895.3,846.3,1779.9,0
4.28,55.73,-46.35,38.88,0.128,0.1,850.1,850.7,830.3,1785.8,0
4.3,61.52,-45.12,37.98,0.148,-0.23,814.9,786.6,867.9,1782.8,0
4.32,67.11,-43.78,37.1,-0.218,-0.125,800.5,772.2,808.7,1782.8,0
4.34,72.11,-42.34,36.26,-0.078,-0.18,858,801,853.1,1782.8,0
4.36,77.9,-40.78,35.44,-0.111,0.06,915.4,887.4,927.1,1782.8,0
4.38,82.69,-39.12,34.66,-0.28,-0.28,929.8,916.2,942,1782.8,0
4.4,86.89,-37.39,33.91,0.004,0.065,936.3,922.8,978.3,1785.8,0
4.42,89.68,-35.59,33.2,0.136,-0.4,959.8,931.9,972.8,1776.9,0
4.44,90.88,-33.77,32.52,-0.169,-0.24,1017.3,975.1,987.6,1776.9,0
4.46,89.28,-31.99,31.89,-0.148,-0.09,1030.3,988.2,1104.8,1782.8,0
4.48,85.09,-30.29,31.28,0.226,0.105,1017.3,975.1,1076.4,1776.9,0
4.5,79.9,-28.69,30.71,-0.189,-0.03,1017.3,989.5,1061.6,1776.9,0
4.52,73.11,-27.23,30.16,0.095,0.205,959.8,917.5,972.8,1776.9,0
4.54,66.91,-25.89,29.64,0.016,-0.075,901.1,815.4,867.9,1782.8,0
4.56,59.72,-24.69,29.15,0.086,-0.19,902.4,744.7,824.8,1776.9,0
4.58,53.13,-23.63,28.68,-0.037,-0.16,816.2,744.7,750.7,1776.9,0
4.6,46.74,-22.7,28.22,0.037,0.045,795.4,709.4,773.6,1774,0
4.62,40.75,-21.88,27.79,0.082,-0.04,787.5,701.5,795.1,1776.9,0
4.64,35.35,-21.18,27.36,0.025,-0.08,795.4,695,758.8,1774,0
4.66,32.16,-20.53,26.95,-0.23,0.005,760.1,674,677.9,1771.1,0
4.68,31.76,-19.9,26.55,0.206,0.055,651.8,594.1,640.3,1774,0
4.7,33.96,-19.22,26.17,0.058,-0.095,658.3,557.5,632.3,1776.9,0
4.72,38.35,-18.45,25.8,-0.025,-0.15,651.8,623,625.5,1774,0
4.74,43.74,-17.58,25.45,-0.049,-0.07,717,674,677.9,1771.1,0
4.76,48.54,-16.61,25.12,0.099,0.02,795.4,723.8,758.8,1774,0
4.78,50.53,-15.59,24.8,-0.173,-0.13,838.4,824.6,862.4,1774,0
4.8,49.74,-14.6,24.51,-0.086,-0.04,895.9,911,921.6,1774,0
4.82,46.74,-13.66,24.24,-0.029,-0.1,916.8,903.1,972.8,1776.9,0
4.84,41.35,-12.84,23.98,-0.053,-0.1,894.5,837.7,890.8,1779.9,0
4.86,35.35,-12.13,23.74,-0.235,-0.095,771.8,743.4,779.1,1782.8,0
4.88,28.96,-11.55,23.51,-0.008,-0.05,679.1,650.4,683.5,1779.9,0
4.9,21.57,-11.12,23.29,-0.037,-0.075,643.9,643.9,661.9,1776.9,0
4.92,14.38,-10.83,23.07,-0.008,-0.01,643.9,615.1,676.7,1776.9,0
4.94,6.99,-10.69,22.86,-0.111,-0.165,629.5,586.3,632.3,1776.9,0
4.96,-0.2,-10.7,22.64,0.185,-0.01,593,549.6,639.1,1779.9,0
4.98,-6.99,-10.84,22.42,0.049,-0.07,580,522.1,581.1,1774,0
5,-12.78,-11.09,22.2,-0.062,0.02,508.2,478.9,507.1,1774,0
5.02,-17.78,-11.45,21.97,0.029,0,449.4,405.6,476.2,1779.9,0
5.04,-22.37,-11.9,21.74,0.082,-0.13,522.5,378.1,462.7,1774,0
5.06,-26.57,-12.43,21.49,-0.119,0.03,493.8,406.9,447.9,1774,0
5.08,-29.16,-13.01,21.23,0.177,-0.19,471.6,399.1,395.4,1776.9,0
5.1,-30.36,-13.62,20.96,0.111,0.01,479.4,378.1,388.6,1774,0
5.12,-29.96,-14.22,20.67,0.074,-0.06,465.1,334.9,373.8,1774,0
5.14,-27.76,-14.77,20.38,0.016,0,422,334.9,359,1774,0
5.16,-24.77,-15.27,20.07,-0.099,-0.13,428.5,355.9,365.8,1776.9,0
5.18,-20.97,-15.69,19.76,-0.008,-0.075,455.9,397.8,423.8,1782.8,0
5.2,-16.18,-16.01,19.44,-0.045,-0.045,514.7,485.5,513.9,1776.9,0
5.22,-9.79,-16.21,19.11,-0.058,0.065,549.9,477.6,520.6,1779.9,0
5.24,-1.8,-16.24,18.79,-0.058,-0.125,491.1,476.3,489.8,1785.8,0
5.26,7.39,-16.09,18.47,-0.025,0.025,585.1,513,557,1782.8,0
5.28,17.38,-15.75,18.15,-0.078,-0.065,613.9,556.2,601.4,1782.8,0
5.3,25.97,-15.23,17.85,0.033,-0.04,671.3,700.2,705.1,1782.8,0
5.32,33.36,-14.56,17.55,0.066,0.1,743.1,714.6,793.9,1782.8,0
5.34,37.15,-13.82,17.28,-0.091,-0.205,784.8,814.1,807.5,1788.7,0
5.36,37.75,-13.06,17.02,0.008,-0.01,856.6,814.1,881.5,1788.7,0
5.38,35.95,-12.34,16.77,-0.029,0.03,885.4,814.1,881.5,1788.7,0
5.4,32.36,-11.7,16.54,0.029,0.035,850.1,807.5,859.9,1785.8,0
5.42,29.16,-11.11,16.31,0.198,-0.03,762.6,691,755,1791.7,0
5.44,26.77,-10.58,16.1,0.008,-0.025,714.4,613.8,660.7,1782.8,0
5.46,25.57,-10.07,15.9,0.012,-0.08,649.1,519.5,608.2,1785.8,0
5.48,25.77,-9.55,15.71,0.041,-0.07,700,556.2,645.9,1782.8,0
5.5,26.97,-9.01,15.53,-0.049,-0.1,684.3,612.5,629.8,1788.7,0
5.52,28.56,-8.44,15.36,-0.004,-0.03,771.8,628.2,734.7,1782.8,0
5.54,31.36,-7.81,15.2,-0.058,-0.08,735.2,634.7,711.9,1785.8,0
5.56,35.55,-7.1,15.06,-0.082,-0.045,778.3,677.9,741.5,1785.8,0
5.58,39.95,-6.3,14.94,0.033,-0.03,786.2,657,749.5,1782.8,0
5.6,44.74,-5.41,14.83,-0.025,-0.04,764,677.9,726.7,1785.8,0
5.62,48.14,-4.44,14.74,0,0.005,858,714.6,793.9,1782.8,0
5.64,45.14,-3.54,14.67,-0.078,-0.07,872.3,786.6,867.9,1782.8,0
5.66,35.55,-2.83,14.61,-0.021,0.04,871,842.9,881.5,1788.7,0
5.68,22.77,-2.38,14.56,-0.099,-0.045,915.4,873,942,1782.8,0
5.7,11.19,-2.15,14.52,-0.016,-0.06,921.9,850.7,933.9,1785.8,0
5.72,4.99,-2.05,14.48,-0.045,-0.075,842.3,871.7,911.1,1788.7,0
5.74,3,-1.99,14.44,-0.062,-0.075,987.2,988.2,1016,1782.8,0
5.76,3.8,-1.92,14.4,-0.074,-0.02,1029,1058.9,1103.6,1788.7,0
5.78,4.79,-1.82,14.37,-0.012,-0.055,1109.9,1140.1,1157.2,1779.9,0
5.8,5.19,-1.72,14.33,-0.025,-0.06,1089.1,1133.5,1150.5,1776.9,0
5.82,5.59,-1.6,14.3,-0.021,-0.06,1059,1117.8,1104.8,1782.8,0
5.84,5.59,-1.49,14.27,0.004,0.01,1145.2,1117.8,1134.4,1782.8,0
5.86,4.59,-1.4,14.24,0.012,-0.02,1166.1,1153.2,1200.4,1785.8,0
5.88,2.6,-1.35,14.21,-0.037,-0.045,1260.1,1261.8,1297.3,1782.8,0
5.9,-0.8,-1.36,14.19,-0.066,-0.045,1354.1,1370.5,1408.9,1779.9,0
5.92,-3.2,-1.43,14.16,0,-0.035,1496.3,1455.6,1555.7,1785.8,0
5.94,-2.8,-1.48,14.13,-0.148,-0.075,1590.3,1549.8,1637.8,1782.8,0
5.96,-0.6,-1.5,14.1,-0.021,-0.03,1639.9,1556.4,1659.4,1785.8,0
5.98,2.6,-1.44,14.07,-0.025,-0.105,1646.5,1577.3,1651.3,1788.7,0
6,4.79,-1.35,14.04,-0.012,-0.06,1647.8,1564.2,1682.2,1782.8,0
6.02,6.19,-1.23,14.02,-0.025,-0.06,1639.9,1599.6,1703.8,1785.8,0
6.04,6.59,-1.09,14,-0.045,-0.09,1675.2,1663.7,1740.2,1788.7,0
6.06,7.19,-0.95,13.98,0.012,-0.025,1777,1765.8,1845,1782.8,0
6.08,7.59,-0.8,13.96,-0.095,-0.13,1869.7,1830,1896.2,1785.8,0
