time(sec),acc(in/s/s),vel(in/s),pos(in),lateral_acc_1,lateral_acc_2,Load_1(lbs),Load_2(lbs),Load_3(lbs),Pressure(psi),Temperature(F)
0,26.9,83.99,104.18,-0.074,-0.028,2402.5,2402.1,2423.1,1683.5,0
0.02,13.73,84.26,105.87,0.058,0.158,2382.3,2380.7,2489.3,1680.6,0
0.04,1.72,84.3,107.55,0.132,-0.028,2263.4,2344.4,2393.8,1683.5,0
0.06,-7.94,84.14,109.23,-0.083,-0.51,2263.4,2315.6,2335.2,1683.5,0
0.08,-11.74,83.9,110.91,-0.112,-0.154,2179.9,2229.2,2217.9,1683.5,0
0.1,-10.57,83.69,112.59,0.07,-0.02,2068.5,2085.1,2100.6,1683.5,0
0.12,-5.01,83.59,114.26,0.012,-0.036,1977.5,1991.1,2093.1,1686.3,0
0.14,0.55,83.6,115.93,-0.045,-0.245,2012.9,2056.3,2012.7,1683.5,0
0.16,3.48,83.67,117.6,0.132,0.182,2152,2142.7,2217.9,1683.5,0
0.18,1.72,83.71,119.28,0.079,-0.126,2228,2308.1,2356.9,1686.3,0
0.2,-4.42,83.62,120.95,0.186,0.107,2374.7,2344.4,2452.4,1683.5,0
0.22,-13.5,83.35,122.62,-0.095,-0.032,2270.9,2351.9,2342.7,1680.6,0
0.24,-24.03,82.87,124.27,-0.223,-0.024,2215.3,2236.7,2254.8,1680.6,0
0.26,-32.82,82.21,125.92,0.161,0.383,2103.9,2121.4,2166.8,1680.6,0
0.28,-39.55,81.42,127.55,0.041,-0.087,2055.8,2042.4,2086.4,1677.8,0
0.3,-43.94,80.54,129.16,0.058,-0.194,1936.9,1890.8,1961.6,1680.6,0
0.32,-46.28,79.62,130.75,-0.021,0.209,1881.3,1919.7,1961.6,1680.6,0
0.34,-48.04,78.66,132.32,-0.14,0.126,1888.8,1927.1,1969.1,1677.8,0
0.36,-50.96,77.64,133.88,-0.182,-0.383,1944.5,1984.8,1998.5,1677.8,0
0.38,-55.65,76.52,135.41,0.037,0,1924.2,1963.4,2006,1675,0
0.4,-61.21,75.3,136.91,-0.037,-0.257,1959.6,2028.5,2042.9,1672.2,0
0.42,-67.36,73.95,138.39,0.07,-0.138,1987.5,1970.9,2013.5,1672.2,0
0.44,-72.62,72.5,139.84,0.202,0.008,1891.2,1928.2,1911.4,1666.5,0
0.46,-76.43,70.97,141.26,-0.12,0.225,1863.4,1841.8,1882,1666.5,0
0.48,-79.36,69.38,142.65,0.033,0.047,1752.1,1784.1,1823.4,1666.5,0
0.5,-81.7,67.75,144,-0.273,-0.107,1731.8,1734,1801.6,1663.7,0
0.52,-83.16,66.09,145.32,0.012,-0.047,1731.8,1762.8,1831,1663.7,0
0.54,-84.04,64.41,146.61,-0.24,-0.091,1704,1820.4,1772.3,1663.7,0
0.56,-84.92,62.71,147.87,-0.029,-0.043,1767.2,1827.9,1809.2,1660.9,0
0.58,-86.09,60.99,149.09,-0.008,-0.285,1719.1,1748.9,1728.8,1658.1,0
0.6,-86.67,59.25,150.27,-0.054,-0.036,1691.3,1720.1,1728.8,1658.1,0
0.62,-86.09,57.53,151.42,-0.058,-0.059,1691.3,1720.1,1758.1,1658.1,0
0.64,-83.16,55.87,152.54,-0.231,0.067,1698.8,1698.8,1795,1655.2,0
0.66,-77.31,54.32,153.63,-0.066,-0.028,1671,1698.8,1736.3,1655.2,0
0.68,-69.11,52.94,154.68,0.004,0.02,1678.5,1677.4,1714.6,1652.4,0
0.7,-60.62,51.73,155.72,0.05,-0.213,1602.6,1656.1,1722.1,1649.6,0
0.72,-54.18,50.64,156.73,0.099,-0.138,1686.1,1713.7,1810.1,1649.6,0
0.74,-50.38,49.64,157.72,-0.021,-0.051,1812.6,1844,1883.8,1643.9,0
0.76,-50.67,48.62,158.7,0.074,-0.119,1880.9,1973.1,1956.6,1649.6,0
0.78,-53.01,47.56,159.65,-0.054,0.126,1966.8,2003,1986.8,1638.3,0
0.8,-56.23,46.44,160.58,-0.463,-0.043,1855.5,1858.9,1898.9,1638.3,0
0.82,-59.45,45.25,161.48,-0.347,-0.3,1772,1830.1,1898.9,1638.3,0
0.84,-61.79,44.01,162.36,0.074,-0.893,1736.6,1736.2,1803.4,1641.1,0
0.86,-63.55,42.74,163.22,0.07,0.245,1723.9,1722.3,1789.1,1635.5,0
0.88,-64.14,41.46,164.05,0.463,-0.304,1779.6,1722.3,1789.1,1635.5,0
0.9,-64.72,40.16,164.85,-0.004,0.166,1703.6,1729.8,1796.7,1632.6,0
0.92,-64.72,38.87,165.63,-0.521,0.423,1711.2,1708.5,1804.2,1629.8,0
0.94,-64.14,37.59,166.38,-0.095,0.292,1731.5,1787.4,1796.7,1632.6,0
0.96,-62.67,36.33,167.11,-0.124,0.289,1711.2,1766.1,1745.6,1629.8,0
0.98,-60.92,35.11,167.81,-0.541,0.229,1690.9,1687.1,1753.1,1627,0
1,-58.28,33.95,168.49,0.256,-0.186,1746.6,1715.9,1723.8,1627,0
1.02,-55.06,32.85,169.14,0.19,0.04,1782,1723.4,1760.7,1624.2,0
1.04,-53.31,31.78,169.78,0.376,-0.296,1746.6,1715.9,1782.5,1627,0
1.06,-52.13,30.74,170.39,0.017,0.087,1754.1,1723.4,1760.7,1624.2,0
1.08,-53.31,29.67,170.99,-0.455,-0.04,1774.4,1802.4,1811.8,1627,0
1.1,-55.65,28.56,171.56,-0.289,-0.071,1761.7,1788.5,1826.9,1621.3,0
1.12,-59.45,27.37,172.11,-0.041,0.028,1797.1,1853.7,1805.1,1618.5,0
1.14,-62.67,26.12,172.63,0.248,-0.04,1761.7,1788.5,1797.6,1621.3,0
1.16,-64.72,24.82,173.13,0.157,-0.372,1678.2,1702.1,1709.6,1621.3,0
1.18,-65.89,23.51,173.6,-0.182,0.3,1657.9,1709.6,1775.8,1618.5,0
1.2,-66.18,22.18,174.04,0.223,0.067,1594.7,1644.5,1651,1621.3,0
1.22,-65.31,20.88,174.46,0.149,-0.178,1657.9,1680.8,1717.1,1618.5,0
1.24,-65.01,19.58,174.85,-0.14,0.04,1630.1,1680.8,1687.8,1618.5,0
1.26,-65.89,18.26,175.21,0.025,0.047,1665.5,1688.2,1695.4,1615.7,0
1.28,-69.99,16.86,175.55,0.211,0.178,1673,1724.5,1732.2,1612.9,0
1.3,-77.02,15.32,175.86,-0.004,-0.19,1645.2,1724.5,1673.6,1612.9,0
1.32,-86.67,13.58,176.13,0.008,0.02,1665.5,1717.1,1754,1615.7,0
1.34,-97.21,11.64,176.36,-0.149,0.063,1673,1724.5,1732.2,1612.9,0
1.36,-106.58,9.51,176.55,0.017,0.012,1561.7,1609.3,1615,1612.9,0
1.38,-114.77,7.21,176.7,-0.103,-0.075,1450.4,1465.2,1527,1612.9,0
1.4,-120.04,4.81,176.79,-0.149,-0.154,1311.2,1321.1,1380.4,1612.9,0
1.42,-124.14,2.33,176.84,-0.029,0.059,1298.5,1364.9,1395.5,1607.2,0
1.44,-126.78,-0.21,176.83,0.021,-0.138,1361.7,1401.2,1403.1,1604.4,0
1.46,-127.36,-2.75,176.78,-0.174,0.095,1361.7,1372.3,1373.8,1604.4,0
1.48,-124.43,-5.24,176.67,0.103,-0.17,1389.6,1372.3,1403.1,1604.4,0
1.5,-117.99,-7.6,176.52,-0.149,-0.075,1361.7,1372.3,1373.8,1604.4,0
1.52,-107.16,-9.75,176.33,0,0.095,1369.3,1351,1381.3,1601.6,0
1.54,-94.58,-11.64,176.09,-0.058,-0.012,1278.2,1285.9,1344.4,1604.4,0
1.56,-83.75,-13.31,175.83,0.079,-0.067,1258,1293.4,1322.7,1601.6,0
1.58,-77.31,-14.86,175.53,-0.062,0.063,1432.5,1444.9,1447.5,1598.7,0
1.6,-76.43,-16.39,175.2,-0.136,-0.012,1543.8,1589,1652.7,1598.7,0
1.62,-82.28,-18.03,174.84,-0.07,-0.099,1662.7,1711.8,1718.9,1595.9,0
1.64,-93.11,-19.9,174.44,-0.021,-0.126,1614.6,1661.6,1638.5,1593.1,0
1.66,-107.46,-22.04,174,0.017,0.012,1475.5,1459.9,1491.9,1593.1,0
1.68,-122.68,-24.5,173.51,0.008,0.028,1364.1,1373.4,1374.6,1593.1,0
1.7,-134.97,-27.2,172.97,-0.132,-0.036,1316,1323.3,1323.5,1590.3,0
1.72,-143.17,-30.06,172.37,-0.099,-0.071,1176.9,1179.2,1235.6,1590.3,0
1.74,-146.97,-33,171.71,0.103,0.229,961.8,984.9,1008.6,1587.4,0
1.76,-146.97,-35.94,170.99,-0.041,-0.178,906.1,927.3,950,1587.4,0
1.78,-146.68,-38.87,170.21,-0.074,0.071,926.4,977.5,971.7,1590.3,0
1.8,-145.8,-41.79,169.38,-0.054,0.047,961.8,1013.8,979.3,1587.4,0
1.82,-144.05,-44.67,168.48,-0.029,0.024,969.3,992.4,1016.1,1584.6,0
1.84,-141.12,-47.49,167.53,-0.025,-0.115,969.3,963.6,986.8,1584.6,0
1.86,-132.92,-50.15,166.53,-0.087,-0.012,885.8,877.1,898.9,1584.6,0
1.88,-122.68,-52.6,165.48,-0.12,-0.075,726.4,682.9,701.2,1581.8,0
1.9,-112.43,-54.85,164.38,-0.107,-0.079,531.6,510,496,1581.8,0
1.92,-104.82,-56.95,163.24,-0.087,-0.202,372.1,373.4,356.9,1579,0
1.94,-99.85,-58.95,162.06,-0.045,-0.059,233,229.3,210.3,1579,0
1.96,-97.21,-60.89,160.85,0.12,0.063,38.1,27.5,63.8,1579,0
1.98,-95.46,-62.8,159.59,-0.058,0.004,-45.4,-58.9,-53.5,1579,0
2,-94.87,-64.7,158.3,0.025,0.095,-128.9,-116.5,-112.1,1579,0
2.02,-94.87,-66.59,156.96,-0.223,-0.016,-121.3,-80.2,-104.6,1576.1,0
2.04,-94.87,-68.49,155.59,-0.066,0.02,-113.8,-101.6,-126.4,1573.3,0
2.06,-93.11,-70.35,154.19,0.153,-0.028,-141.6,-101.6,-155.7,1573.3,0
2.08,-90.19,-72.16,152.74,-0.004,-0.095,-121.3,-137.9,-46,1576.1,0
2.1,-85.8,-73.87,151.27,-0.099,-0.241,-149.1,-80.2,-104.6,1576.1,0
2.12,-82.58,-75.53,149.76,-0.112,-0.261,-166.7,-96.3,-120.5,1593.1,0
2.14,-83.16,-77.19,148.21,0.099,-0.261,-80.4,-62.2,-85.4,1612.9,0
2.16,-87.85,-78.95,146.63,0.025,-0.217,-27.2,52,-27.6,1624.2,0
2.18,-96.63,-80.88,145.02,-0.07,-0.146,61.5,144.8,96.3,1632.6,0
2.2,-107.16,-83.02,143.35,-0.008,-0.296,31.3,86.1,124.8,1643.9,0
2.22,-116.24,-85.35,141.65,-0.021,-0.154,-95.2,-15.4,-7.6,1649.6,0
2.24,-122.68,-87.8,139.89,0.029,0.008,-206.5,-188.3,-154.2,1649.6,0
2.26,-123.85,-90.28,138.09,0.169,-0.281,-333,-318.5,-286.5,1655.2,0
2.28,-120.34,-92.68,136.23,-0.248,-0.083,-312.7,-268.3,-264.8,1658.1,0
2.3,-112.43,-94.93,134.33,-0.223,0.051,-264.6,-275.8,-272.3,1660.9,0
2.32,-101.6,-96.96,132.39,0.037,0.273,-272.1,-254.5,-250.5,1663.7,0
2.34,-90.77,-98.78,130.42,0.017,-0.071,-224,-233.2,-170.1,1666.5,0
2.36,-80.82,-100.4,128.41,-0.128,-0.083,-105.2,-81.6,-104,1663.7,0
2.38,-74.38,-101.88,126.37,-0.128,-0.34,-29.2,-2.6,-23.6,1666.5,0
2.4,-71.45,-103.31,124.31,-0.136,-0.47,46.7,76.4,56.9,1669.4,0
2.42,-70.87,-104.73,122.21,0.116,-0.099,74.6,134,86.2,1669.4,0
2.44,-71.16,-106.15,120.09,0.26,0.217,39.2,97.7,20,1672.2,0
2.46,-71.45,-107.58,117.94,-0.091,-0.202,-16.5,11.3,-38.6,1672.2,0
2.48,-71.16,-109.01,115.76,1.198,-2.134,-51.9,-25,-16.9,1675,0
2.5,-69.4,-110.39,113.55,-0.384,0.15,3.8,-111.5,-16.9,1675,0
2.52,-66.18,-111.72,111.32,-0.244,-1.332,-142.9,140.4,-83,1677.8,0
2.54,-60.92,-112.94,109.06,0,0.802,24,-61.3,-83,1677.8,0
2.56,-54.18,-114.02,106.78,0.174,0.921,-87.3,111.6,-24.4,1677.8,0
2.58,-44.82,-114.92,104.48,0.12,1.534,16.5,46.5,26.7,1680.6,0
2.6,-33.69,-115.59,102.17,-0.409,0.704,64.6,-18.7,48.4,1683.5,0
2.62,-20.81,-116.01,99.85,0.24,-1.079,92.4,67.8,77.8,1683.5,0
2.64,-6.18,-116.13,97.52,0.554,-0.415,140.5,117.9,128.9,1686.3,0
2.66,9.63,-115.94,95.2,0.475,-1.332,168.4,175.6,158.2,1686.3,0
2.68,24.26,-115.45,92.9,-0.26,0.032,244.3,283.4,297.2,1689.1,0
2.7,37.14,-114.71,90.6,-0.19,1.237,355.6,341,326.5,1689.1,0
2.72,46.22,-113.78,88.33,-0.5,-0.557,375.9,420,465.6,1691.9,0
2.74,52.07,-112.74,86.07,-0.698,0.036,507.5,412.5,546,1694.8,0
2.76,55,-111.64,83.84,-0.186,0.787,555.6,577.9,626.4,1697.6,0
2.78,57.34,-110.5,81.63,0.079,0.332,527.8,664.4,626.4,1697.6,0
2.8,60.85,-109.28,79.44,0.293,0.451,484.8,591.8,523.3,1703.2,0
2.82,65.53,-107.97,77.28,-0.409,-0.585,500,520.3,509.1,1697.6,0
2.84,72.85,-106.51,75.15,0.347,0.814,532.9,469,515.8,1706.1,0
2.86,81.05,-104.89,73.06,-0.087,-0.249,477.3,555.5,574.4,1706.1,0
2.88,90.12,-103.09,70.99,-0.037,-0.055,568.3,678.3,640.6,1703.2,0
2.9,96.27,-101.16,68.97,-0.343,-0.328,651.8,793.5,699.2,1703.2,0
2.92,99.78,-99.17,66.99,-0.413,0.241,699.9,814.9,750.3,1706.1,0
2.94,100.66,-97.15,65.04,0.417,-0.403,755.6,843.7,867.6,1706.1,0
2.96,98.61,-95.18,63.14,-0.434,-0.672,811.3,872.5,896.9,1706.1,0
2.98,95.1,-93.28,61.27,0.112,0.028,791,908.8,845.8,1703.2,0
3,92.17,-91.44,59.45,0.12,-0.146,839.1,843.7,867.6,1706.1,0
3.02,92.76,-89.58,57.65,-0.397,-0.178,684.8,799.9,764.6,1711.7,0
3.04,96.56,-87.65,55.9,0.025,-0.289,672.1,699.6,691.7,1706.1,0
3.06,104.76,-85.55,54.19,-0.26,-0.138,672.1,699.6,721,1706.1,0
3.08,115.3,-83.25,52.53,0.074,-0.17,699.9,728.4,750.3,1706.1,0
3.1,126.13,-80.73,50.91,-0.339,0.209,735.3,793.5,787.2,1703.2,0
3.12,134.32,-78.04,49.35,-0.231,0.344,791,880,845.8,1703.2,0
3.14,136.96,-75.3,47.84,0.273,-0.13,1028.8,1067.9,1095.4,1697.6,0
3.16,136.37,-72.57,46.39,-0.149,-0.36,1112.3,1154.3,1183.4,1697.6,0
3.18,131.98,-69.93,44.99,0.037,0.597,1084.4,1125.5,1183.4,1697.6,0
3.2,125.54,-67.42,43.65,-0.07,-0.17,1033.9,1131.9,1072.8,1706.1,0
3.22,119.39,-65.04,42.34,-0.157,0.771,1028.8,1067.9,1007.5,1697.6,0
3.24,113.54,-62.76,41.09,0.004,0.008,952.8,960.1,985.7,1694.8,0
3.26,107.98,-60.6,39.88,-0.343,-0.111,889.6,866.1,919.5,1697.6,0
3.28,103,-58.54,38.71,-0.074,-0.079,869.3,844.8,897.8,1694.8,0
3.3,97.44,-56.6,37.57,0.083,-0.079,897.2,873.6,985.7,1694.8,0
3.32,91.59,-54.76,36.48,0.149,-0.091,849.1,852.3,934.6,1691.9,0
3.34,84.85,-53.07,35.42,-0.029,-0.012,884.5,975,942.2,1689.1,0
3.36,78.41,-51.5,34.39,-0.298,-0.079,919.8,838.4,920.4,1686.3,0
3.38,72.85,-50.04,33.39,0.31,-0.099,808.5,838.4,861.8,1686.3,0
3.4,68.17,-48.68,32.41,0.194,0.012,760.4,788.3,810.7,1683.5,0
3.42,64.66,-47.39,31.47,0.252,-0.138,704.7,759.4,781.4,1683.5,0
3.44,61.44,-46.16,30.54,-0.091,0.514,719.9,745.6,737.8,1677.8,0
3.46,57.92,-45,29.64,0.079,0.043,699.6,724.2,745.4,1675,0
3.48,53.24,-43.93,28.76,0.091,0.016,762.8,789.4,811.5,1672.2,0
3.5,47.97,-42.97,27.9,-0.256,-0.249,755.3,724.2,774.7,1675,0
3.52,42.12,-42.13,27.06,0.347,0,679.3,731.7,782.2,1672.2,0
3.54,38.02,-41.37,26.23,-0.252,-0.04,679.3,760.5,694.3,1672.2,0
3.56,35.39,-40.66,25.42,0.116,0.19,666.6,631.4,650.7,1666.5,0
3.58,35.68,-39.95,24.62,0.298,0.063,666.6,631.4,621.4,1666.5,0
3.6,38.02,-39.19,23.84,0.054,-0.206,610.9,573.8,592.1,1666.5,0
3.62,41.53,-38.36,23.07,-0.211,-0.162,562.8,581.2,570.3,1663.7,0
3.64,43.87,-37.48,22.32,-0.36,0.028,583.1,631.4,621.4,1666.5,0
3.66,43.87,-36.6,21.59,0.025,-0.194,674.2,696.5,716.9,1663.7,0
3.68,40.36,-35.8,20.87,-0.326,-0.198,737.4,732.8,783.1,1660.9,0
3.7,33.04,-35.14,20.17,-0.124,-0.004,681.7,732.8,812.4,1660.9,0
3.72,24.85,-34.64,19.48,-0.244,-0.225,681.7,704,783.1,1660.9,0
3.74,17.53,-34.29,18.79,0.207,-0.324,653.9,675.2,724.5,1660.9,0
3.76,12.55,-34.04,18.11,-0.14,-0.091,550.1,596.2,585.4,1658.1,0
3.78,11.68,-33.8,17.44,-0.31,-0.095,502,459.6,505,1655.2,0
3.8,13.14,-33.54,16.76,-0.273,-0.198,446.3,430.8,446.4,1655.2,0
3.82,16.36,-33.21,16.1,-0.124,0.194,453.9,495.9,453.9,1652.4,0
3.84,19.29,-32.83,15.44,0.008,0.115,537.4,611.2,512.6,1652.4,0
3.86,20.75,-32.41,14.8,0.025,-0.012,593.1,668.8,571.2,1652.4,0
3.88,21.04,-31.99,14.16,-0.223,-0.162,593.1,668.8,659.1,1652.4,0
3.9,21.34,-31.57,13.52,-0.227,0.099,600.6,705.1,637.4,1649.6,0
3.92,23.38,-31.1,12.9,0.012,0.103,600.6,705.1,637.4,1649.6,0
3.94,27.19,-30.55,12.29,-0.021,0.111,509.6,611.2,600.5,1652.4,0
3.96,33.63,-29.88,11.69,-0.24,-0.012,481.7,524.7,571.2,1652.4,0
3.98,42.12,-29.04,11.11,-0.017,0.19,517.1,589.8,549.4,1649.6,0
4,50.31,-28.03,10.55,-0.079,-0.036,648.7,611.2,659.1,1652.4,0
4.02,57.34,-26.89,10.01,0.033,-0.028,648.7,726.4,717.8,1652.4,0
4.04,62.02,-25.65,9.5,-0.004,-0.123,704.4,755.3,776.4,1652.4,0
4.06,64.66,-24.35,9.01,-0.153,0.083,767.6,849.2,813.3,1649.6,0
4.08,64.66,-23.06,8.55,-0.236,0.15,795.5,849.2,842.6,1649.6,0
4.1,65.24,-21.75,8.12,0.025,-0.059,820.9,848.1,812.4,1660.9,0
4.12,67,-20.41,7.71,-0.037,-0.091,767.6,820.4,842.6,1649.6,0
4.14,71.39,-18.99,7.33,-0.14,-0.221,712,762.7,813.3,1649.6,0
4.16,76.66,-17.45,6.98,-0.025,-0.04,712,791.6,754.6,1649.6,0
4.18,82.51,-15.8,6.67,0.14,0.142,775.2,827.9,791.5,1646.8,0
4.2,86.9,-14.06,6.38,0.066,-0.269,795.5,849.2,813.3,1649.6,0
4.22,88.37,-12.3,6.14,-0.045,-0.158,879,906.8,959.9,1649.6,0
4.24,86.9,-10.56,5.93,-0.017,0.028,914.3,971.9,967.4,1646.8,0
4.26,82.22,-8.92,5.75,0.017,0.083,949.7,1037.1,1004.3,1643.9,0
4.28,76.37,-7.39,5.6,0.029,-0.146,949.7,950.6,945.6,1643.9,0
4.3,70.8,-5.97,5.48,0.054,-0.15,921.9,864.2,916.3,1643.9,0
4.32,67.29,-4.63,5.39,-0.116,-0.115,866.2,864.2,916.3,1643.9,0
4.34,67,-3.29,5.32,0,-0.123,719.5,741.4,791.5,1646.8,0
4.36,68.75,-1.91,5.28,0.074,-0.008,727.1,720.1,769.7,1643.9,0
4.38,66.12,-0.59,5.27,-0.107,0,727.1,748.9,740.4,1643.9,0
4.4,54.41,0.5,5.28,-0.017,0.043,782.7,806.5,828.4,1643.9,0
4.42,34.51,1.19,5.31,-0.041,-0.043,873.8,929.3,923.9,1641.1,0
4.44,11.09,1.41,5.34,-0.091,-0.142,921.9,950.6,1004.3,1643.9,0
4.46,-9.4,1.22,5.36,-0.008,-0.02,957.3,958.1,953.2,1641.1,0
4.48,-23.45,0.75,5.37,-0.025,0.04,949.7,979.4,1004.3,1643.9,0
4.5,-29.89,0.16,5.38,-0.107,-0.107,1096.5,1073.4,1099.8,1641.1,0
4.52,-27.84,-0.4,5.37,0.004,-0.051,1207.8,1188.6,1217,1641.1,0
4.54,-20.23,-0.8,5.35,0.025,-0.04,1243.2,1224.9,1283.2,1638.3,0
4.56,-8.81,-0.98,5.33,0.116,0.047,1271,1282.6,1371.2,1638.3,0
4.58,2.31,-0.93,5.32,0.033,0.119,1180,1303.9,1305,1641.1,0
4.6,10.51,-0.72,5.3,-0.099,0,1207.8,1246.3,1246.3,1641.1,0
4.62,13.73,-0.45,5.29,-0.021,-0.016,1152.1,1217.5,1217,1641.1,0
4.64,13.14,-0.19,5.29,0.017,-0.087,1215.4,1196.1,1195.3,1638.3,0
4.66,9.63,0.01,5.29,-0.058,-0.099,1215.4,1224.9,1224.6,1638.3,0
4.68,7.58,0.16,5.29,-0.045,-0.055,1207.8,1246.3,1275.7,1641.1,0
4.7,7.29,0.3,5.3,-0.12,0.028,1235.6,1275.1,1217,1641.1,0
4.72,9.63,0.5,5.31,-0.062,-0.055,1255.9,1296.4,1297.4,1643.9,0
4.74,11.68,0.73,5.32,-0.033,0,1255.9,1296.4,1356.1,1643.9,0
4.76,14.02,1.01,5.34,-0.062,-0.087,1304,1346.6,1377.8,1646.8,0
4.78,17.82,1.37,5.37,-0.021,-0.087,1443.2,1490.7,1495.1,1646.8,0
4.8,23.38,1.83,5.41,-0.095,0.032,1582.3,1663.6,1641.7,1646.8,0
4.82,30.41,2.44,5.45,-0.029,-0.059,1617.7,1699.9,1678.6,1643.9,0
4.84,38.31,3.21,5.52,-0.103,-0.028,1673.4,1728.7,1707.9,1643.9,0
4.86,45.05,4.11,5.6,-0.091,-0.04,1805,1807.7,1905.5,1646.8,0
4.88,50.31,5.12,5.7,-0.054,0.043,1972,2038.2,2052.1,1646.8,0
4.9,55.29,6.22,5.83,0.008,0.004,2131.4,2203.7,2220.5,1649.6,0
4.92,59.39,7.41,5.98,-0.05,0.063,2194.6,2326.4,2286.7,1646.8,0
4.94,62.9,8.67,6.15,-0.033,-0.087,2278.1,2297.6,2316,1646.8,0
4.96,66.71,10,6.35,-0.103,-0.067,2298.4,2261.3,2337.8,1649.6,0
4.98,71.1,11.42,6.58,-0.054,-0.051,2354.1,2376.6,2396.4,1649.6,0
5,78.12,12.99,6.84,0.029,0.024,2381.9,2405.4,2425.7,1649.6,0
5.02,88.37,14.75,7.13,-0.074,0.02,2402.2,2397.9,2447.5,1652.4,0
5.04,100.66,16.77,7.47,0.008,-0.004,2346.5,2311.5,2388.8,1652.4,0
5.06,113.83,19.04,7.85,-0.017,0.055,2331.4,2354.1,2432.4,1658.1,0
5.08,124.37,21.53,8.28,0,0.063,2450.3,2534.5,2557.2,1655.2,0
5.1,130.52,24.14,8.76,0.025,0.087,2609.7,2671.1,2666.9,1658.1,0
5.12,132.27,26.79,9.3,0.004,-0.055,2741.3,2807.7,2806,1660.9,0
5.14,129.35,29.37,9.89,-0.066,-0.099,2797,2778.9,2835.3,1660.9,0
5.16,123.2,31.84,10.52,-0.066,-0.154,2754.1,2764,2849.5,1666.5,0
5.18,115.3,34.14,11.21,-0.017,-0.008,2698.4,2706.3,2761.6,1666.5,0
5.2,107.1,36.28,11.93,-0.012,0.063,2607.3,2612.4,2666.1,1669.4,0
5.22,98.9,38.26,12.7,-0.05,0.083,2544.1,2576.1,2658.5,1672.2,0
5.24,91.88,40.1,13.5,-0.05,-0.17,2536.5,2568.6,2651,1675,0
5.26,87.49,41.85,14.33,0.008,0.083,2508.7,2539.8,2621.7,1675,0
5.28,85.44,43.56,15.21,-0.054,-0.008,2493.6,2524.8,2606.6,1680.6,0
5.3,86.02,45.28,16.11,0.021,0.004,2486,2546.2,2569.7,1683.5,0
5.32,88.07,47.04,17.05,-0.033,-0.107,2486,2546.2,2540.4,1683.5,0
5.34,91.88,48.88,18.03,0.066,-0.099,2486,2546.2,2569.7,1683.5,0
5.36,95.98,50.8,19.05,0.025,-0.107,2526.6,2588.9,2613.2,1689.1,0
5.38,100.37,52.8,20.1,0.029,0.123,2637.9,2704.1,2730.5,1689.1,0
5.4,104.47,54.89,21.2,-0.161,-0.221,2602.5,2696.6,2693.6,1691.9,0
5.42,105.34,57,22.34,-0.021,0.103,2595,2660.3,2686.1,1694.8,0
5.44,103.59,59.07,23.52,-0.136,-0.032,2622.8,2746.8,2715.4,1694.8,0
5.46,97.44,61.02,24.74,-0.099,0.055,2698.7,2825.8,2795.8,1697.6,0
5.48,88.07,62.78,26,-0.099,0.051,2774.7,2760.7,2817.6,1700.4,0
5.5,76.07,64.3,27.28,-0.004,-0.012,2746.8,2818.3,2817.6,1700.4,0
5.52,62.32,65.55,28.59,-0.05,-0.028,2655.8,2666.7,2692.8,1703.2,0
5.54,49.44,66.54,29.93,0.004,0.241,2481.2,2515.2,2568,1706.1,0
5.56,37.14,67.28,31.27,-0.062,-0.257,2473.7,2507.7,2589.7,1708.9,0
5.58,28.65,67.86,32.63,-0.074,-0.257,2473.7,2450,2531.1,1708.9,0
5.6,22.21,68.3,33.99,-0.128,-0.063,2354.8,2442.6,2435.6,1711.7,0
5.62,18.7,68.67,35.37,0.169,-0.051,2271.3,2356.1,2318.3,1711.7,0
5.64,14.9,68.97,36.75,0.083,-0.123,2256.2,2283.5,2361.9,1717.4,0
5.66,9.33,69.16,38.13,-0.252,-0.383,2319.4,2377.4,2369.4,1714.5,0
5.68,1.43,69.19,39.51,-0.136,0.13,2347.2,2463.9,2428.1,1714.5,0
5.7,-8.52,69.02,40.89,-0.041,-0.012,2402.9,2435.1,2428.1,1714.5,0
5.72,-19.35,68.63,42.27,-0.128,-0.498,2347.2,2377.4,2369.4,1714.5,0
5.74,-29.3,68.04,43.63,0.132,-0.016,2228.3,2312.3,2303.3,1717.4,0
5.76,-36.62,67.31,44.97,0.05,-0.178,2124.6,2175.7,2164.2,1714.5,0
5.78,-41.3,66.49,46.3,0.012,-0.225,2033.5,2081.8,2098,1717.4,0
5.8,-42.77,65.63,47.62,0.054,-0.237,1985.4,2060.4,2046.9,1714.5,0
5.82,-41.3,64.8,48.91,0.017,0.13,2013.2,2060.4,2076.3,1714.5,0
5.84,-36.04,64.08,50.19,0.045,-0.19,2020.8,2067.9,2083.8,1711.7,0
5.86,-28.13,63.52,51.46,0.116,-0.032,2020.8,2096.7,2083.8,1711.7,0
5.88,-19.64,63.13,52.73,0.029,0.02,2068.9,2089.3,2105.6,1714.5,0
5.9,-10.28,62.92,53.99,-0.017,-0.198,2084,2161.9,2150,1708.9,0
5.92,-1.5,62.89,55.24,-0.202,0.02,2111.8,2190.7,2179.3,1708.9,0
5.94,4.94,62.99,56.5,0.24,-0.02,2202.9,2255.8,2274.8,1706.1,0
5.96,9.92,63.19,57.77,-0.107,-0.162,2286.4,2342.2,2362.8,1706.1,0
5.98,12.55,63.44,59.04,0.099,-0.273,2321.8,2292.1,2341,1703.2,0
6,13.14,63.7,60.31,0.021,-0.095,2230.7,2284.6,2304.1,1706.1,0
6.02,10.8,63.92,61.59,-0.12,-0.051,2273.7,2299.6,2319.2,1700.4,0
