time(sec),acc(in/s/s),vel(in/s),pos(in),lateral_acc_1,lateral_acc_2,Load_1(lbs),Load_2(lbs),Load_3(lbs),Pressure(psi),Temperature(F)
0,-6.49,-0.26,85.31,,,,,,,
0.02,-18.77,-0.63,85.3,-0.00363,-0.00097,276.8667,309.1667,145.5667,1159.1,0
0.04,-40.62,-1.44,85.27,-0.04632,-0.0078,123.7667,210.5667,6.1667,1173.7,0
0.06,-66.83,-2.78,85.21,-0.00817,0.006823,44.4667,144.1667,-72.4333,1171.3,0
0.08,-91.8,-4.62,85.12,0.016348,0,-19.1333,78.9667,-121.733,1173.7,0
0.1,-113.02,-6.88,84.98,-0.0218,-0.02242,-168.433,-88.6333,-256.233,1176.1,0
0.12,-128.63,-9.45,84.79,0.007266,0.024368,-292.933,-128.633,-353.033,1190.7,0
0.14,-136.95,-12.19,84.55,-0.02997,-0.00487,-278.633,-128.633,-338.833,1190.7,0
0.16,-140.49,-15,84.25,0.01544,0.01657,-235.833,-99.4333,-310.433,1190.7,0
0.18,-139.03,-17.78,83.9,0.039962,-0.0078,-312.333,-207.133,-358.833,1198,0
0.2,-134.25,-20.46,83.49,-0.03451,0.013646,-331.833,-183.333,-392.933,1205.3,0
0.22,-127.8,-23.02,83.03,0.065393,0.002924,-365.533,-217.933,-384.533,1212.5,0
0.24,-121.55,-25.45,82.52,0,0.018519,-371.933,-224.633,-391.233,1215,0
0.26,-116.56,-27.78,81.96,0.013624,0.014621,-426.433,-295.233,-417.833,1224.7,0
0.28,-113.02,-30.04,81.36,0.06721,-0.03509,-412.133,-353.733,-432.033,1224.7,0
0.3,-111.78,-32.28,80.71,-0.07811,-0.05263,-383.633,-309.833,-488.833,1224.7,0
0.32,-110.53,-34.49,80.02,-0.07538,-0.07408,-461.433,-433.533,-410.333,1227.1,0
0.34,-108.65,-36.66,79.29,-0.01544,0.162775,-523.733,-395.033,-472.933,1234.4,0
0.36,-100.33,-38.67,78.52,-0.09991,-0.04581,-501.633,-460.233,-465.333,1236.8,0
0.38,-84.1,-40.35,77.71,0.12352,-0.00877,-586.033,-473.633,-592.333,1241.7,0
0.4,-61.84,-41.59,76.88,0.157125,-0.01949,-619.733,-464.333,-598.133,1249,0
0.42,-38.33,-42.35,76.03,0.033605,0.113065,-597.633,-514.933,-633.133,1251.4,0
0.44,-18.14,-42.72,75.18,0.089007,-0.0926,-653.433,-557.533,-518.633,1256.3,0
0.46,-1.71,-42.75,74.32,0.068118,-0.17447,-752.033,-336.833,-588.733,1261.1,0
0.48,10.15,-42.55,73.47,-0.00363,-0.03899,-582.033,-557.533,-490.233,1256.3,0
0.5,17.44,-42.2,72.63,-0.08719,-0.01949,-511.933,-529.533,-519.533,1251.4,0
0.52,20.77,-41.78,71.79,0.183464,0.184218,-510.633,-674.533,-362.333,1256.3,0
0.54,21.18,-41.36,70.97,0.363295,-0.154,-445.633,-608.133,-440.033,1258.7,0
0.56,20.97,-40.94,70.15,0.296086,0.195915,-457.233,-605.533,-310.433,1268.4,0
0.58,19.93,-40.54,69.34,0.026339,-0.03411,-533.833,-450.033,-429.833,1275.7,0
0.6,19.93,-40.14,68.53,-0.17802,0.126711,-510.433,-426.233,-464.033,1283,0
0.62,20.35,-39.74,67.74,0.086283,-0.05263,-515.533,-592.533,-384.533,1290.3,0
0.64,22.01,-39.3,66.95,0.03088,-0.29144,-458.433,-621.733,-327.733,1290.3,0
0.66,23.26,-38.83,66.18,-0.08537,-0.14621,-528.433,-503.433,-454.733,1295.1,0
0.68,23.47,-38.36,65.41,-0.21071,-0.09844,-520.633,-480.933,-461.333,1297.6,0
0.7,20.14,-37.96,64.65,0.008174,-0.03899,-520.633,-554.033,-475.533,1297.6,0
0.72,12.86,-37.7,63.89,-0.01362,0.19494,-492.133,-583.233,-418.733,1297.6,0
0.74,1.21,-37.68,63.14,-0.22706,0.121838,-492.133,-480.933,-475.533,1297.6,0
0.76,-11.69,-37.91,62.38,-0.01635,-0.05751,-512.833,-531.433,-368.533,1300,0
0.78,-22.93,-38.37,61.62,0.209803,-0.02437,-532.233,-507.633,-388.533,1307.3,0
0.8,-31.46,-39,60.84,-0.08083,-0.09552,-453.033,-514.333,-437.833,1309.7,0
0.82,-39.37,-39.79,60.04,-0.23614,-0.07603,-573.833,-550.233,-387.633,1312.1,0
0.84,-43.53,-40.66,59.23,0.118071,-0.06628,-607.533,-526.333,-421.833,1319.4,0
0.86,-44.98,-41.56,58.4,0.160758,-0.00097,-599.733,-518.433,-527.933,1321.8,0
0.88,-44.36,-42.44,57.55,-0.08992,-0.11209,-571.133,-533.033,-428.533,1321.8,0
0.9,-43.74,-43.32,56.68,0.309709,-0.00097,-612.633,-575.633,-413.433,1326.7,0
0.92,-42.07,-44.16,55.8,-0.15258,-0.02534,-697.033,-457.333,-469.333,1331.6,0
0.94,-40.62,-44.97,54.9,-0.08083,-0.00585,-604.833,-640.833,-420.033,1329.1,0
0.96,-39.78,-45.77,53.98,-0.04087,0.055558,-591.833,-656.733,-449.333,1324.3,0
0.98,-38.95,-46.55,53.05,-0.2207,0.068229,-628.233,-693.933,-400.133,1321.8,0
1,-38.12,-47.31,52.11,0.029064,0.04971,-519.133,-655.433,-604.733,1329.1,0
1.02,-35.62,-48.02,51.14,-0.09627,-0.17934,-547.733,-684.733,-491.133,1329.1,0
1.04,-32.08,-48.66,50.17,0.104447,-0.12964,-538.533,-792.433,-582.133,1336.4,0
1.06,-26.05,-49.18,49.19,0.023614,0.157902,-545.033,-667.533,-659.833,1338.9,0
1.08,-17.73,-49.54,48.2,0.042687,0.215409,-452.833,-763.233,-709.933,1336.4,0
1.1,-8.57,-49.71,47.2,0.0772,-0.05946,-480.033,-703.433,-751.733,1341.3,0
1.12,-0.67,-49.72,46.21,0.290636,-0.37623,-437.233,-835.133,-680.633,1341.3,0
1.14,6.62,-49.59,45.22,-0.22706,0.036064,-548.833,-847.133,-579.433,1351,0
1.16,11.4,-49.36,44.23,-0.19073,0.009747,-505.933,-759.433,-678.933,1351,0
1.18,15.15,-49.06,43.25,-0.06448,0.072128,-505.933,-788.633,-551.033,1351,0
1.2,17.02,-48.72,42.27,-0.02816,0.030216,-469.633,-736.833,-586.133,1353.4,0
1.22,18.06,-48.36,41.31,0.112622,-0.16862,-582.533,-720.933,-585.233,1358.3,0
1.24,21.18,-47.94,40.35,0.213436,-0.06433,-504.633,-699.633,-550.133,1355.9,0
1.26,22.85,-47.48,39.4,0.024522,-0.07505,-544.833,-653.233,-633.633,1365.6,0
1.28,23.26,-47.01,38.46,0.000908,0.153028,-395.533,-763.533,-641.133,1363.1,0
1.3,23.05,-46.55,37.53,0.031788,0.074077,-473.433,-755.633,-562.533,1365.6,0
1.32,24.09,-46.07,36.61,0.118071,0.088698,-464.233,-731.733,-625.133,1372.9,0
1.34,24.3,-45.58,35.69,-0.03996,-0.0926,-479.833,-762.233,-611.833,1368,0
1.36,24.09,-45.1,34.79,-0.00636,0.034115,-449.933,-761.033,-625.133,1372.9,0
1.38,22.85,-44.65,33.9,0.019981,0.04971,-421.433,-746.333,-582.533,1372.9,0
1.4,20.35,-44.24,33.01,-0.02816,-0.0078,-408.433,-733.033,-498.233,1368,0
1.42,17.44,-43.89,32.14,-0.00908,-0.06238,-435.733,-775.633,-497.333,1372.9,0
1.44,14.11,-43.61,31.26,0.005449,0.014621,-485.033,-738.433,-461.333,1375.3,0
1.46,11.82,-43.37,30.4,0.009991,-0.077,-492.833,-673.233,-397.833,1372.9,0
1.48,10.15,-43.17,29.53,-0.03996,-0.05946,-534.333,-701.233,-382.833,1377.7,0
1.5,9.11,-42.99,28.67,-0.02906,0.013646,-583.633,-722.533,-375.233,1380.1,0
1.52,9.53,-42.8,27.82,-0.03633,0.005848,-469.433,-751.733,-375.233,1380.1,0
1.54,10.99,-42.58,26.97,-0.01362,-0.04289,-553.733,-809.033,-274.933,1385,0
1.56,11.61,-42.34,26.12,-0.00272,0.039963,-504.433,-773.033,-296.633,1382.6,0
1.58,10.78,-42.13,25.28,0.04632,0.004874,-539.433,-765.133,-303.333,1385,0
1.6,10.15,-41.92,24.44,0.003633,-0.03704,-588.833,-727.933,-295.733,1387.4,0
1.62,10.78,-41.71,23.6,-0.00817,-0.00487,-560.233,-713.333,-281.533,1387.4,0
1.64,12.65,-41.46,22.78,0.004541,-0.00097,-643.233,-652.233,-336.633,1397.1,0
1.66,14.11,-41.17,21.95,0.008174,-0.00097,-600.433,-652.233,-322.433,1397.1,0
1.68,15.98,-40.85,21.13,0.031788,0.022418,-543.233,-652.233,-350.833,1397.1,0
1.7,17.85,-40.5,20.32,-0.08356,-0.04386,-579.633,-630.933,-372.533,1394.7,0
1.72,21.18,-40.07,19.52,-0.00454,-0.05946,-523.833,-632.233,-387.633,1389.9,0
1.74,24.09,-39.59,18.73,0.021798,-0.03314,-539.433,-662.733,-360.133,1385,0
1.76,27.63,-39.04,17.95,-0.01726,-0.09162,-525.233,-618.833,-374.333,1385,0
1.78,30.96,-38.42,17.18,0.009082,-0.02534,-491.533,-613.433,-340.133,1377.7,0
1.8,34.5,-37.73,16.43,0.037238,0.007798,-520.033,-540.333,-354.333,1377.7,0
1.82,37.2,-36.99,15.69,0.014532,-0.01852,-500.633,-578.833,-320.233,1370.4,0
1.84,39.49,-36.2,14.96,-0.00363,-0.00097,-501.933,-536.233,-363.733,1365.6,0
1.86,41.99,-35.36,14.26,-0.02634,-0.00975,-531.833,-435.133,-421.433,1360.7,0
1.88,43.65,-34.48,13.57,0.007266,-0.01365,-512.433,-429.733,-358.833,1353.4,0
1.9,45.73,-33.57,12.9,-0.0109,-0.04484,-470.933,-504.133,-302.833,1348.6,0
1.92,48.02,-32.61,12.24,0.014532,0.012671,-491.733,-466.933,-337.933,1351,0
1.94,50.31,-31.6,11.61,0.023614,-0.0156,-486.533,-446.833,-303.733,1343.7,0
1.96,52.39,-30.55,11,-0.00636,-0.01754,-451.533,-469.433,-297.133,1341.3,0
1.98,54.26,-29.47,10.41,-0.00727,-0.02339,-451.533,-469.433,-325.533,1341.3,0
2,55.51,-28.36,9.84,-0.00817,-0.00097,-439.933,-442.733,-242.033,1331.6,0
2.02,56.97,-27.22,9.3,-0.02271,-0.03217,-441.233,-414.733,-242.933,1326.7,0
2.04,58.63,-26.05,8.78,-0.01726,0.003899,-464.633,-380.133,-237.133,1319.4,0
2.06,59.47,-24.86,8.28,0.019981,0.050684,-388.133,-477.033,-131.933,1312.1,0
2.08,60.3,-23.65,7.81,0.004541,0.003899,-389.433,-449.133,-175.433,1307.3,0
2.1,60.92,-22.43,7.36,-0.01181,0.002924,-332.333,-434.433,-246.533,1307.3,0
2.12,60.71,-21.22,6.94,0.025431,0.014621,-241.433,-443.733,-240.733,1300,0
2.14,60.71,-20,6.54,-0.00091,0.020469,-220.733,-407.733,-262.433,1297.6,0
2.16,60.92,-18.79,6.16,-0.01181,0.036064,-292.133,-378.533,-262.433,1297.6,0
2.18,62.17,-17.54,5.81,0.001816,-0.02729,-244.133,-402.333,-199.833,1290.3,0
2.2,63.21,-16.28,5.48,0.022706,0.029241,-174.033,-403.633,-257.633,1285.4,0
2.22,64.67,-14.98,5.18,-0.01272,-0.02632,-245.533,-315.933,-286.033,1285.4,0
2.24,65.92,-13.67,4.91,-0.00999,0.022418,-233.833,-259.933,-287.733,1275.7,0
2.26,66.75,-12.33,4.66,0.009991,0.029241,-235.233,-261.233,-231.833,1270.8,0
2.28,67.37,-10.98,4.44,-0.09809,-0.02437,-263.733,-246.533,-288.633,1270.8,0
2.3,68.83,-9.61,4.25,0.011807,-0.0078,-223.633,-234.533,-276.233,1261.1,0
2.32,70.08,-8.21,4.09,-0.00908,-0.01949,-204.133,-243.733,-256.233,1253.8,0
2.34,70.7,-6.79,3.95,-0.00545,0.009747,-212.033,-237.033,-278.033,1251.4,0
2.36,70.91,-5.37,3.84,-0.0336,0.017545,-164.033,-246.233,-258.033,1244.1,0
2.38,69.45,-3.98,3.76,-0.0218,0.003899,-200.333,-239.633,-265.533,1241.7,0
2.4,62.17,-2.74,3.71,0.078108,0.040937,-173.133,-314.033,-124.433,1236.8,0
2.42,50.52,-1.73,3.68,-0.01726,0.024368,-258.833,-167.733,-223.833,1236.8,0
2.44,37.83,-0.97,3.66,-0.00545,0.030216,-239.433,-133.133,-246.433,1229.5,0
2.46,26.38,-0.45,3.65,-0.04632,0.126711,-220.033,-25.3333,-325.933,1222.3,0
2.48,17.02,-0.11,3.64,0.000908,-0.0926,-191.433,-69.1333,-354.333,1222.3,0
2.5,10.15,0.1,3.65,0.063577,-0.18227,57.8667,-62.5333,78.4667,1219.8,0
2.52,6.41,0.23,3.65,0.104447,-0.09844,183.7667,154.3667,176.1667,1210.1,0
2.54,4.54,0.32,3.66,0.000908,-0.06725,247.3667,395.0667,168.5667,1207.7,0
2.56,3.5,0.39,3.67,0.052678,0.004874,303.1667,525.3667,252.9667,1202.8,0
2.58,2.66,0.44,3.67,0.029064,0.000975,417.3667,510.7667,309.7667,1202.8,0
2.6,2.46,0.49,3.68,0.070843,0.034115,565.3667,472.2667,471.8667,1195.5,0
2.62,2.66,0.54,3.69,0.232509,-0.38891,692.5667,587.9667,570.3667,1190.7,0
2.64,2.04,0.58,3.71,0.003633,-0.01072,762.6667,923.1667,640.5667,1185.8,0
2.66,1.83,0.62,3.72,-0.0336,0.015595,891.1667,952.3667,825.1667,1185.8,0
2.68,2.25,0.66,3.73,-0.15258,-0.04289,1132.667,1068.067,852.7667,1181,0
2.7,2.04,0.7,3.75,-0.03724,0.103318,1352.067,1205.167,972.1667,1173.7,0
2.72,4.33,0.79,3.76,0.110805,0.040937,1322.167,1335.467,1226.967,1168.8,0
2.74,18.68,1.17,3.79,-0.01998,0.002924,1379.267,1540.267,1241.167,1168.8,0
2.76,43.45,2.03,3.83,-0.03179,-0.04971,1549.367,1655.967,1311.367,1164,0
2.78,72.57,3.49,3.9,-0.05904,0.013646,1711.667,1763.767,1459.167,1156.7,0
2.8,99.42,5.47,4.01,0.001816,-0.00487,1847.967,1742.467,1622.967,1159.1,0
2.82,122.1,7.92,4.16,0.192547,0.089672,1846.667,1931.367,1764.167,1154.3,0
2.84,141.65,10.75,4.38,-0.03179,0.048735,1890.867,2122.767,1665.567,1159.1,0
2.86,156.84,13.89,4.66,0.098998,-0.01754,1971.367,1941.867,1730.867,1166.4,0
2.88,169.95,17.28,5,-0.01544,-0.03899,1850.667,2125.267,1695.767,1168.8,0
2.9,180.98,20.9,5.42,-0.04632,0.060431,2023.367,1980.267,1625.667,1173.7,0
2.92,187.85,24.66,5.91,0.040871,0.03314,1980.567,1980.267,1682.467,1173.7,0
2.94,193.26,28.53,6.48,0.000908,-0.02729,1966.267,2082.667,1739.267,1173.7,0
2.96,195.75,32.44,7.13,-0.00545,-0.0039,2032.567,1916.367,1747.667,1181,0
2.98,193.88,36.32,7.86,-0.00182,-0.02242,1954.667,2143.767,1670.067,1183.4,0
3,190.97,40.14,8.66,-0.00908,-0.08577,1862.467,2210.167,1748.567,1185.8,0
3.02,187.22,43.88,9.54,0.017257,0.06433,1920.967,2065.167,1806.267,1190.7,0
3.04,183.06,47.54,10.49,0.027247,0.065305,2057.267,2000.067,1799.667,1193.1,0
3.06,176.4,51.07,11.51,-0.05631,0.039963,1936.567,2271.267,1636.767,1195.5,0
3.08,157.05,54.21,12.6,0.042687,0.026317,2050.867,2095.767,1721.967,1195.5,0
3.1,126.46,56.74,13.73,0.002725,0.065305,2065.067,2037.267,1792.967,1195.5,0
3.12,90.26,58.55,14.9,-0.00999,-0.05946,1915.767,2220.667,1743.767,1198,0
3.14,55.1,59.65,16.09,-0.01907,-0.06531,2015.767,2147.567,1786.367,1198,0
3.16,22.43,60.1,17.3,-0.03996,0.029241,2052.167,2009.267,1751.267,1200.4,0
3.18,-5.24,59.99,18.5,-0.01453,0.015595,2001.467,2030.567,1686.867,1198,0
3.2,-28.76,59.42,19.68,-0.02816,-0.03509,1920.967,2079.867,1706.867,1190.7,0
3.22,-48.94,58.44,20.85,-0.00454,0.040937,1992.367,2050.567,1692.667,1190.7,0
3.24,-64.96,57.14,22,0.057219,0.001949,1976.767,1976.167,1791.267,1185.8,0
3.26,-77.65,55.59,23.11,0.006358,-0.01365,1884.567,2101.167,1713.567,1188.3,0
3.28,-87.01,53.85,24.18,-0.00454,-0.02924,1918.267,2077.267,1719.267,1181,0
3.3,-92.84,51.99,25.22,-0.00636,0.021443,1940.367,2041.367,1655.867,1183.4,0
3.32,-95.96,50.07,26.23,-0.00908,0.013646,1931.267,2061.367,1647.367,1176.1,0
3.34,-98.46,48.1,27.19,0.018165,-0.00585,1901.367,2045.467,1717.567,1171.3,0
3.36,-101.37,46.07,28.11,0.016348,-0.01949,1894.867,2097.267,1668.267,1173.7,0
3.38,-103.66,44,28.99,0.024522,-0.0117,1915.567,2045.467,1660.667,1171.3,0
3.4,-102.41,41.95,29.83,-0.00545,0.003899,1950.667,1993.667,1695.767,1168.8,0
3.42,-93.67,40.08,30.63,-0.00454,0.012671,1972.767,2045.467,1618.067,1171.3,0
3.44,-74.74,38.58,31.4,0.001816,0.024368,1907.767,2008.267,1638.967,1168.8,0
3.46,-51.23,37.56,32.15,0.016348,0.009747,1914.267,1971.067,1674.067,1166.4,0
3.48,-27.3,37.01,32.89,0.014532,-0.0078,1858.467,2001.567,1689.067,1171.3,0
3.5,-4.83,36.92,33.63,0.003633,-0.03509,1879.267,2052.167,1709.967,1168.8,0
3.52,14.32,37.2,34.38,0.014532,-0.01657,1910.467,2054.667,1711.767,1178.5,0
3.54,29.09,37.79,35.13,-0.01544,0.026317,1989.667,2077.267,1719.267,1181,0
3.56,40.74,38.6,35.9,-0.02906,-0.00682,1976.767,2078.567,1677.567,1185.8,0
3.58,50.31,39.61,36.7,-0.02634,-0.0117,1971.567,2102.367,1643.367,1193.1,0
3.6,55.72,40.72,37.51,0.009082,0.015595,1966.267,2053.467,1668.267,1173.7,0
3.62,59.67,41.91,38.35,0.018165,0.005848,1944.167,2030.867,1731.767,1171.3,0
3.64,64.67,43.21,39.21,0.009991,0.000975,1902.667,2046.767,1718.367,1176.1,0
3.66,69.45,44.6,40.1,-0.00636,-0.01852,1953.267,2040.067,1740.167,1178.5,0
3.68,75.49,46.11,41.03,-0.00817,0.001949,1988.367,2046.767,1704.167,1176.1,0
3.7,80.27,47.71,41.98,0.001816,-0.00877,1940.367,2085.267,1712.667,1183.4,0
3.72,83.39,49.38,42.97,0.040871,0.004874,2018.267,2091.867,1761.967,1181,0
3.74,83.6,51.05,43.99,-0.01362,0.005848,1984.567,2115.767,1741.967,1188.3,0
3.76,76.11,52.57,45.04,0.000908,-0.00097,2013.167,2086.467,1741.967,1188.3,0
3.78,60.71,53.79,46.12,-0.00272,-0.02632,2000.167,2131.667,1728.667,1193.1,0
3.8,40.32,54.59,47.21,0,-0.01852,1958.667,2147.567,1729.467,1198,0
3.82,19.31,54.98,48.31,0.013624,-0.01949,1979.367,2154.267,1778.767,1195.5,0
3.84,-2.12,54.94,49.41,0,0.019494,2044.367,2045.167,1772.167,1198,0
3.86,-21.06,54.52,50.5,-0.0109,0.023393,2001.467,2103.667,1729.467,1198,0
3.88,-36.87,53.78,51.57,-0.03542,-0.02534,1993.667,2081.067,1679.367,1195.5,0
3.9,-50.81,52.76,52.63,-0.02452,0.014621,1993.667,2066.467,1693.567,1195.5,0
3.92,-61.21,51.54,53.66,-0.02089,-0.00975,1978.067,2094.467,1706.867,1190.7,0
3.94,-66.21,50.22,54.66,-0.00182,0.01657,1943.067,2058.567,1742.867,1193.1,0
3.96,-66.83,48.88,55.64,0.010899,0.003899,1970.267,2057.267,1770.367,1188.3,0
3.98,-67.25,47.53,56.59,0.003633,-0.03606,1933.867,2049.267,1762.767,1185.8,0
4,-72.03,46.09,57.51,-0.03542,0.002924,1940.367,2099.867,1712.667,1183.4,0
4.02,-82.65,44.44,58.4,-0.00454,-0.04289,1937.667,2097.267,1682.467,1173.7,0
4.04,-96.17,42.52,59.25,-0.00636,-0.00097,1936.367,2081.367,1667.367,1168.8,0
4.06,-108.03,40.36,60.06,-0.00545,-0.0156,1911.567,2027.067,1686.467,1156.7,0
4.08,-115.94,38.04,60.82,-0.01362,-0.00682,1888.167,1973.967,1678.067,1149.4,0
4.1,-116.98,35.7,61.53,-0.00272,-0.01754,1850.467,1964.767,1655.367,1142.1,0
4.12,-109.69,33.5,62.2,0.001816,-0.00585,1846.467,1917.067,1624.267,1127.5,0
4.14,-97.21,31.56,62.84,-0.02634,-0.0156,1830.867,1930.367,1566.567,1122.7,0
4.16,-80.56,29.95,63.43,0.004541,0.015595,1883.967,1882.667,1592.367,1108.1,0
4.18,-61.84,28.71,64.01,-0.0109,0.011696,1833.267,1874.767,1570.567,1105.7,0
4.2,-43.53,27.84,64.57,0.018165,0.027292,1830.667,1872.167,1625.667,1096,0
4.22,-28.13,27.28,65.11,-0.00272,-0.0078,1802.067,1916.067,1597.267,1096,0
4.24,-15.23,26.97,65.65,0.013624,0.008772,1757.867,1944.067,1582.167,1091.1,0
4.26,-6.49,26.84,66.19,-0.0109,-0.01852,1807.167,1965.367,1560.367,1088.7,0
4.28,-3.37,26.78,66.72,-0.00636,-0.00195,1800.767,1958.667,1567.967,1091.1,0
4.3,-3.37,26.71,67.26,-0.00454,-0.01365,1864.367,1936.067,1574.567,1088.7,0
4.32,-2.95,26.65,67.79,0.008174,0.009747,1822.767,1937.367,1589.667,1093.5,0
4.34,0.17,26.65,68.32,-0.01544,-0.00585,1852.767,1938.667,1604.767,1098.4,0
4.36,8.49,26.82,68.86,-0.00999,-0.00097,1865.867,1966.267,1644.267,1120.2,0
4.38,19.93,27.22,69.4,-0.01635,-0.0156,1864.767,2008.567,1641.167,1142.1,0
4.4,31.17,27.85,69.96,-0.00545,0.012671,1950.467,1950.067,1655.367,1142.1,0
4.42,40.53,28.66,70.53,-0.00908,0.015595,1921.867,1979.367,1655.367,1142.1,0
4.44,43.65,29.53,71.13,-0.01453,0.01657,1923.167,2009.867,1656.267,1147,0
4.46,40.74,30.34,71.73,-0.00363,-0.02047,1916.767,2076.367,1678.067,1149.4,0
4.48,32.63,31,72.35,-0.00272,-0.0117,1916.767,2076.367,1692.267,1149.4,0
4.5,20.77,31.41,72.98,-0.00636,-0.00195,1883.067,2085.567,1658.067,1156.7,0
4.52,7.03,31.55,73.61,-0.00727,-0.00585,1960.967,2019.067,1721.567,1154.3,0
4.54,-7.95,31.39,74.24,-0.00182,-0.00682,1933.667,2034.967,1665.567,1159.1,0
4.56,-21.89,30.96,74.86,0.001816,0.015595,2003.767,1989.867,1707.367,1154.3,0
4.58,-33.33,30.29,75.46,-0.01272,-0.00292,1960.967,2019.067,1664.667,1154.3,0
4.6,-40.82,29.47,76.05,0.006358,-0.00195,1911.567,2012.467,1658.067,1156.7,0
4.62,-43.94,28.59,76.63,-0.01181,-0.01072,1953.067,2011.167,1671.367,1151.8,0
4.64,-44.78,27.7,77.18,0.006358,0.004874,1932.367,2019.067,1678.867,1154.3,0
4.66,-46.65,26.77,77.71,0.003633,-0.00975,1918.067,2004.467,1664.667,1154.3,0
4.68,-51.23,25.74,78.23,0.003633,0.009747,1945.267,2003.167,1692.267,1149.4,0
4.7,-58.93,24.56,78.72,0.004541,-0.00975,1916.767,2047.067,1678.067,1149.4,0
4.72,-67.87,23.2,79.18,-0.01453,-0.00195,1923.167,2053.767,1642.067,1147,0
4.74,-78.48,21.63,79.62,-0.02271,0.001949,1959.567,2047.067,1663.767,1149.4,0
4.76,-86.6,19.9,80.02,-0.01181,-0.0117,1905.167,2049.667,1651.367,1159.1,0
4.78,-92.42,18.05,80.38,0.003633,0.017545,1919.367,2005.767,1665.567,1159.1,0
4.8,-92.01,16.21,80.7,0.019073,-0.00097,1931.067,1973.967,1678.067,1149.4,0
4.82,-86.39,14.49,80.99,-0.00545,0.003899,1894.667,1995.267,1642.067,1147,0
4.84,-78.07,12.93,81.25,-0.00636,-0.0039,1902.467,2003.167,1635.367,1149.4,0
4.86,-67.25,11.58,81.48,-0.00182,-0.0078,1951.767,2009.867,1684.667,1147,0
4.88,-55.18,10.48,81.69,-0.01544,0.000975,1959.567,2003.167,1649.567,1149.4,0
4.9,-43.32,9.61,81.88,-0.00363,0.011696,1938.867,1996.567,1642.967,1151.8,0
4.92,-32.71,8.96,82.06,-0.00182,-0.00292,1931.067,2032.467,1678.067,1149.4,0
4.94,-25.84,8.44,82.23,0.007266,-0.00097,1923.167,2009.867,1670.467,1147,0
4.96,-22.72,7.98,82.39,0,-0.01072,1880.367,2039.167,1656.267,1147,0
4.98,-20.64,7.57,82.54,-0.00908,0,1921.867,2023.267,1669.567,1142.1,0
5,-18.77,7.2,82.69,-0.00272,-0.0039,1908.967,2053.767,1627.867,1147,0
5.02,-14.61,6.9,82.82,-0.00636,0.006823,1950.467,2023.267,1669.567,1142.1,0
5.04,-6.91,6.77,82.96,-0.00545,0.021443,1937.467,2009.867,1656.267,1147,0
5.06,1.83,6.8,83.09,-0.00727,0.013646,1938.867,2040.367,1671.367,1151.8,0
5.08,11.4,7.03,83.24,-0.00182,0.000975,1976.567,2034.967,1708.167,1159.1,0
5.1,21.18,7.45,83.38,-0.01453,-0.00585,1958.467,2074.767,1674.867,1171.3,0
5.12,26.59,7.99,83.54,-0.00727,0.001949,1994.867,2082.667,1710.867,1173.7,0
